x	y
30.02500 578.0
30.07500 630.0
30.12500 648.0
30.17500 601.0
30.22500 565.0
30.27500 615.0
30.32500 583.0
30.37500 594.0
30.42500 622.0
30.47500 569.0
30.52500 578.0
30.57500 596.0
30.62500 602.0
30.67500 583.0
30.72500 571.0
30.77500 557.0
30.82500 609.0
30.87500 537.0
30.92500 610.0
30.97500 578.0
31.02500 600.0
31.07500 548.0
31.12500 600.0
31.17500 570.0
31.22500 598.0
31.27500 563.0
31.32500 566.0
31.37500 593.0
31.42500 566.0
31.47500 590.0
31.52500 566.0
31.57500 592.0
31.62500 573.0
31.67500 569.0
31.72500 548.0
31.77500 581.0
31.82500 562.0
31.87500 613.0
31.92500 560.0
31.97500 543.0
32.02500 552.0
32.07500 528.0
32.12500 529.0
32.17500 519.0
32.22500 583.0
32.27500 560.0
32.32500 547.0
32.37500 565.0
32.42500 539.0
32.47500 513.0
32.52500 538.0
32.57500 546.0
32.62500 515.0
32.67500 557.0
32.72500 526.0
32.77500 544.0
32.82500 516.0
32.87500 557.0
32.92500 523.0
32.97500 467.0
33.02500 514.0
33.07500 485.0
33.12500 500.0
33.17500 527.0
33.22500 501.0
33.27500 499.0
33.32500 505.0
33.37500 508.0
33.42500 511.0
33.47500 498.0
33.52500 533.0
33.57500 548.0
33.62500 540.0
33.67500 525.0
33.72500 538.0
33.77500 484.0
33.82500 459.0
33.87500 517.0
33.92500 513.0
33.97500 496.0
34.02500 460.0
34.07500 516.0
34.12500 530.0
34.17500 516.0
34.22500 475.0
34.27500 512.0
34.32500 495.0
34.37500 502.0
34.42500 500.0
34.47500 494.0
34.52500 494.0
34.57500 506.0
34.62500 510.0
34.67500 526.0
34.72500 495.0
34.77500 514.0
34.82500 475.0
34.87500 499.0
34.92500 490.0
34.97500 459.0
35.02500 479.0
35.07500 514.0
35.12500 517.0
35.17500 497.0
35.22500 504.0
35.27500 500.0
35.32500 457.0
35.37500 473.0
35.42500 513.0
35.47500 507.0
35.52500 510.0
35.57500 523.0
35.62500 505.0
35.67500 560.0
35.72500 501.0
35.77500 509.0
35.82500 548.0
35.87500 567.0
35.92500 518.0
35.97500 596.0
36.02500 584.0
36.07500 601.0
36.12500 573.0
36.17500 595.0
36.22500 598.0
36.27500 604.0
36.32500 619.0
36.37500 660.0
36.42500 675.0
36.47500 681.0
36.52500 638.0
36.57500 608.0
36.62500 648.0
36.67500 672.0
36.72500 708.0
36.77500 700.0
36.82500 691.0
36.87500 671.0
36.92500 755.0
36.97500 828.0
37.02500 827.0
37.07500 837.0
37.12500 802.0
37.17500 852.0
37.22500 881.0
37.27500 946.0
37.32500 1002.0
37.37500 1110.0
37.42500 1061.0
37.47500 1229.0
37.52500 1358.0
37.57500 1376.0
37.62500 1634.0
37.67500 1834.0
37.72500 1942.0
37.77500 2288.0
37.82500 2556.0
37.87500 2937.0
37.92500 3255.0
37.97500 3693.0
38.02500 3957.0
38.07500 4156.0
38.12500 4352.0
38.17500 4530.0
38.22500 4491.0
38.27500 4424.0
38.32500 4413.0
38.37500 4238.0
38.42500 3754.0
38.47500 3499.0
38.52500 3224.0
38.57500 2792.0
38.62500 2512.0
38.67500 2265.0
38.72500 2039.0
38.77500 1831.0
38.82500 1632.0
38.87500 1539.0
38.92500 1385.0
38.97500 1263.0
39.02500 1141.0
39.07500 1053.0
39.12500 1057.0
39.17500 1003.0
39.22500 922.0
39.27500 951.0
39.32500 836.0
39.37500 820.0
39.42500 774.0
39.47500 770.0
39.52500 706.0
39.57500 730.0
39.62500 700.0
39.67500 660.0
39.72500 655.0
39.77500 610.0
39.82500 609.0
39.87500 632.0
39.92500 620.0
39.97500 582.0
40.02500 610.0
40.07500 596.0
40.12500 586.0
40.17500 537.0
40.22500 586.0
40.27500 546.0
40.32500 540.0
40.37500 560.0
40.42500 546.0
40.47500 547.0
40.52500 459.0
40.57500 516.0
40.62500 500.0
40.67500 523.0
40.72500 476.0
40.77500 497.0
40.82500 440.0
40.87500 526.0
40.92500 479.0
40.97500 514.0
41.02500 471.0
41.07500 502.0
41.12500 482.0
41.17500 505.0
41.22500 466.0
41.27500 517.0
41.32500 469.0
41.37500 422.0
41.42500 477.0
41.47500 480.0
41.52500 482.0
41.57500 482.0
41.62500 471.0
41.67500 515.0
41.72500 461.0
41.77500 508.0
41.82500 470.0
41.87500 536.0
41.92500 524.0
41.97500 433.0
42.02500 441.0
42.07500 504.0
42.12500 469.0
42.17500 489.0
42.22500 497.0
42.27500 522.0
42.32500 521.0
42.37500 507.0
42.42500 505.0
42.47500 524.0
42.52500 518.0
42.57500 510.0
42.62500 520.0
42.67500 538.0
42.72500 566.0
42.77500 526.0
42.82500 521.0
42.87500 603.0
42.92500 611.0
42.97500 595.0
43.02500 598.0
43.07500 605.0
43.12500 628.0
43.17500 583.0
43.22500 655.0
43.27500 641.0
43.32500 712.0
43.37500 735.0
43.42500 644.0
43.47500 782.0
43.52500 777.0
43.57500 839.0
43.62500 816.0
43.67500 928.0
43.72500 930.0
43.77500 1005.0
43.82500 1019.0
43.87500 1078.0
43.92500 1134.0
43.97500 1206.0
44.02500 1249.0
44.07500 1279.0
44.12500 1400.0
44.17500 1400.0
44.22500 1405.0
44.27500 1469.0
44.32500 1503.0
44.37500 1525.0
44.42500 1477.0
44.47500 1509.0
44.52500 1412.0
44.57500 1393.0
44.62500 1394.0
44.67500 1259.0
44.72500 1214.0
44.77500 1157.0
44.82500 1148.0
44.87500 1061.0
44.92500 1029.0
44.97500 953.0
45.02500 864.0
45.07500 849.0
45.12500 734.0
45.17500 747.0
45.22500 680.0
45.27500 700.0
45.32500 651.0
45.37500 575.0
45.42500 573.0
45.47500 581.0
45.52500 514.0
45.57500 552.0
45.62500 526.0
45.67500 490.0
45.72500 464.0
45.77500 432.0
45.82500 470.0
45.87500 440.0
45.92500 427.0
45.97500 419.0
46.02500 411.0
46.07500 437.0
46.12500 376.0
46.17500 383.0
46.22500 394.0
46.27500 383.0
46.32500 339.0
46.37500 396.0
46.42500 341.0
46.47500 364.0
46.52500 366.0
46.57500 379.0
46.62500 344.0
46.67500 349.0
46.72500 375.0
46.77500 341.0
46.82500 338.0
46.87500 381.0
46.92500 330.0
46.97500 319.0
47.02500 334.0
47.07500 324.0
47.12500 345.0
47.17500 313.0
47.22500 305.0
47.27500 347.0
47.32500 321.0
47.37500 330.0
47.42500 332.0
47.47500 314.0
47.52500 326.0
47.57500 306.0
47.62500 322.0
47.67500 329.0
47.72500 342.0
47.77500 292.0
47.82500 281.0
47.87500 328.0
47.92500 335.0
47.97500 310.0
48.02500 308.0
48.07500 322.0
48.12500 320.0
48.17500 300.0
48.22500 291.0
48.27500 309.0
48.32500 281.0
48.37500 328.0
48.42500 283.0
48.47500 310.0
48.52500 334.0
48.57500 309.0
48.62500 331.0
48.67500 293.0
48.72500 316.0
48.77500 282.0
48.82500 311.0
48.87500 328.0
48.92500 341.0
48.97500 303.0
49.02500 270.0
49.07500 303.0
49.12500 297.0
49.17500 324.0
49.22500 299.0
49.27500 305.0
49.32500 302.0
49.37500 326.0
49.42500 306.0
49.47500 295.0
49.52500 269.0
49.57500 300.0
49.62500 303.0
49.67500 295.0
49.72500 277.0
49.77500 314.0
49.82500 296.0
49.87500 299.0
49.92500 324.0
49.97500 351.0
50.02500 321.0
50.07500 333.0
50.12500 327.0
50.17500 311.0
50.22500 319.0
50.27500 307.0
50.32500 329.0
50.37500 344.0
50.42500 346.0
50.47500 339.0
50.52500 337.0
50.57500 322.0
50.62500 310.0
50.67500 326.0
50.72500 374.0
50.77500 334.0
50.82500 330.0
50.87500 337.0
50.92500 332.0
50.97500 337.0
51.02500 311.0
51.07500 384.0
51.12500 343.0
51.17500 358.0
51.22500 367.0
51.27500 332.0
51.32500 338.0
51.37500 359.0
51.42500 570.0
51.47500 1048.0
51.52500 1661.0
51.57500 2173.0
51.62500 2764.0
51.67500 3406.0
51.72500 3420.0
51.77500 2901.0
51.82500 2333.0
51.87500 1742.0
51.92500 1132.0
51.97500 632.0
52.02500 399.0
52.07500 394.0
52.12500 407.0
52.17500 418.0
52.22500 437.0
52.27500 376.0
52.32500 407.0
52.37500 447.0
52.42500 432.0
52.47500 442.0
52.52500 463.0
52.57500 435.0
52.62500 467.0
52.67500 457.0
52.72500 462.0
52.77500 489.0
52.82500 494.0
52.87500 505.0
52.92500 485.0
52.97500 486.0
53.02500 499.0
53.07500 518.0
53.12500 513.0
53.17500 541.0
53.22500 533.0
53.27500 542.0
53.32500 556.0
53.37500 576.0
53.42500 574.0
53.47500 592.0
53.52500 604.0
53.57500 689.0
53.62500 689.0
53.67500 813.0
53.72500 913.0
53.77500 991.0
53.82500 1185.0
53.87500 1193.0
53.92500 1150.0
53.97500 1028.0
54.02500 969.0
54.07500 868.0
54.12500 806.0
54.17500 770.0
54.22500 783.0
54.27500 785.0
54.32500 784.0
54.37500 810.0
54.42500 815.0
54.47500 817.0
54.52500 837.0
54.57500 871.0
54.62500 854.0
54.67500 828.0
54.72500 900.0
54.77500 916.0
54.82500 940.0
54.87500 967.0
54.92500 975.0
54.97500 984.0
55.02500 984.0
55.07500 957.0
55.12500 954.0
55.17500 1056.0
55.22500 1039.0
55.27500 974.0
55.32500 1040.0
55.37500 981.0
55.42500 1010.0
55.47500 980.0
55.52500 971.0
55.57500 967.0
55.62500 938.0
55.67500 878.0
55.72500 905.0
55.77500 968.0
55.82500 927.0
55.87500 857.0
55.92500 878.0
55.97500 840.0
56.02500 848.0
56.07500 865.0
56.12500 758.0
56.17500 850.0
56.22500 780.0
56.27500 745.0
56.32500 724.0
56.37500 721.0
56.42500 704.0
56.47500 686.0
56.52500 680.0
56.57500 681.0
56.62500 661.0
56.67500 629.0
56.72500 629.0
56.77500 614.0
56.82500 592.0
56.87500 599.0
56.92500 551.0
56.97500 577.0
57.02500 568.0
57.07500 499.0
57.12500 502.0
57.17500 515.0
57.22500 479.0
57.27500 512.0
57.32500 483.0
57.37500 488.0
57.42500 469.0
57.47500 465.0
57.52500 462.0
57.57500 422.0
57.62500 408.0
57.67500 401.0
57.72500 398.0
57.77500 434.0
57.82500 423.0
57.87500 388.0
57.92500 372.0
57.97500 362.0
58.02500 368.0
58.07500 365.0
58.12500 339.0
58.17500 342.0
58.22500 399.0
58.27500 373.0
58.32500 372.0
58.37500 367.0
58.42500 332.0
58.47500 365.0
58.52500 342.0
58.57500 318.0
58.62500 309.0
58.67500 344.0
58.72500 332.0
58.77500 345.0
58.82500 336.0
58.87500 268.0
58.92500 280.0
58.97500 289.0
59.02500 281.0
59.07500 289.0
59.12500 293.0
59.17500 307.0
59.22500 292.0
59.27500 264.0
59.32500 308.0
59.37500 275.0
59.42500 248.0
59.47500 256.0
59.52500 311.0
59.57500 256.0
59.62500 237.0
59.67500 272.0
59.72500 275.0
59.77500 264.0
59.82500 301.0
59.87500 278.0
59.92500 289.0
59.97500 284.0
60.02500 281.0
60.07500 277.0
60.12500 280.0
60.17500 274.0
60.22500 277.0
60.27500 261.0
60.32500 250.0
60.37500 264.0
60.42500 270.0
60.47500 239.0
60.52500 261.0
60.57500 280.0
60.62500 262.0
60.67500 255.0
60.72500 255.0
60.77500 275.0
60.82500 289.0
60.87500 261.0
60.92500 274.0
60.97500 245.0
61.02500 232.0
61.07500 259.0
61.12500 269.0
61.17500 260.0
61.22500 272.0
61.27500 253.0
61.32500 275.0
61.37500 265.0
61.42500 247.0
61.47500 238.0
61.52500 247.0
61.57500 247.0
61.62500 256.0
61.67500 255.0
61.72500 276.0
61.77500 245.0
61.82500 248.0
61.87500 270.0
61.92500 278.0
61.97500 262.0
62.02500 260.0
62.07500 250.0
62.12500 245.0
62.17500 253.0
62.22500 255.0
62.27500 290.0
62.32500 265.0
62.37500 279.0
62.42500 235.0
62.47500 275.0
62.52500 259.0
62.57500 259.0
62.62500 265.0
62.67500 246.0
62.72500 247.0
62.77500 256.0
62.82500 289.0
62.87500 262.0
62.92500 252.0
62.97500 320.0
63.02500 280.0
63.07500 313.0
63.12500 294.0
63.17500 309.0
63.22500 278.0
63.27500 308.0
63.32500 315.0
63.37500 319.0
63.42500 350.0
63.47500 357.0
63.52500 342.0
63.57500 356.0
63.62500 374.0
63.67500 390.0
63.72500 417.0
63.77500 438.0
63.82500 461.0
63.87500 457.0
63.92500 524.0
63.97500 555.0
64.02500 638.0
64.07500 675.0
64.12500 764.0
64.17500 757.0
64.22500 870.0
64.27500 998.0
64.32500 1031.0
64.37500 1114.0
64.42500 1150.0
64.47500 1303.0
64.52500 1382.0
64.57500 1366.0
64.62500 1443.0
64.67500 1473.0
64.72500 1458.0
64.77500 1473.0
64.82500 1405.0
64.87500 1384.0
64.92500 1305.0
64.97500 1192.0
65.02500 1164.0
65.07500 1089.0
65.12500 1006.0
65.17500 894.0
65.22500 801.0
65.27500 786.0
65.32500 687.0
65.37500 630.0
65.42500 552.0
65.47500 576.0
65.52500 555.0
65.57500 506.0
65.62500 487.0
65.67500 448.0
65.72500 414.0
65.77500 445.0
65.82500 408.0
65.87500 392.0
65.92500 342.0
65.97500 365.0
66.02500 340.0
66.07500 312.0
66.12500 322.0
66.17500 308.0
66.22500 323.0
66.27500 323.0
66.32500 272.0
66.37500 281.0
66.42500 258.0
66.47500 286.0
66.52500 277.0
66.57500 266.0
66.62500 268.0
66.67500 235.0
66.72500 261.0
66.77500 243.0
66.82500 234.0
66.87500 259.0
66.92500 241.0
66.97500 234.0
67.02500 232.0
67.07500 266.0
67.12500 229.0
67.17500 229.0
67.22500 227.0
67.27500 246.0
67.32500 213.0
67.37500 251.0
67.42500 215.0
67.47500 210.0
67.52500 215.0
67.57500 210.0
67.62500 251.0
67.67500 223.0
67.72500 215.0
67.77500 223.0
67.82500 199.0
67.87500 178.0
67.92500 214.0
67.97500 229.0
68.02500 212.0
68.07500 230.0
68.12500 213.0
68.17500 205.0
68.22500 189.0
68.27500 228.0
68.32500 216.0
68.37500 195.0
68.42500 177.0
68.47500 195.0
68.52500 201.0
68.57500 193.0
68.62500 208.0
68.67500 201.0
68.72500 184.0
68.77500 205.0
68.82500 193.0
68.87500 209.0
68.92500 199.0
68.97500 224.0
69.02500 213.0
69.07500 176.0
69.12500 210.0
69.17500 207.0
69.22500 186.0
69.27500 194.0
69.32500 194.0
69.37500 169.0
69.42500 195.0
69.47500 184.0
69.52500 183.0
69.57500 202.0
69.62500 170.0
69.67500 187.0
69.72500 199.0
69.77500 196.0
69.82500 199.0
69.87500 189.0
69.92500 185.0
69.97500 187.0
70.02500 195.0
70.07500 189.0
70.12500 207.0
70.17500 200.0
70.22500 194.0
70.27500 217.0
70.32500 179.0
70.37500 179.0
70.42500 187.0
70.47500 211.0
70.52500 183.0
70.57500 175.0
70.62500 187.0
70.67500 174.0
70.72500 198.0
70.77500 201.0
70.82500 182.0
70.87500 200.0
70.92500 212.0
70.97500 206.0
71.02500 218.0
71.07500 178.0
71.12500 187.0
71.17500 177.0
71.22500 175.0
71.27500 176.0
71.32500 201.0
71.37500 192.0
71.42500 192.0
71.47500 196.0
71.52500 198.0
71.57500 220.0
71.62500 246.0
71.67500 258.0
71.72500 278.0
71.77500 280.0
71.82500 245.0
71.87500 243.0
71.92500 233.0
71.97500 205.0
72.02500 196.0
72.07500 208.0
72.12500 198.0
72.17500 210.0
72.22500 207.0
72.27500 187.0
72.32500 185.0
72.37500 175.0
72.42500 184.0
72.47500 172.0
72.52500 198.0
72.57500 188.0
72.62500 190.0
72.67500 184.0
72.72500 192.0
72.77500 219.0
72.82500 210.0
72.87500 194.0
72.92500 168.0
72.97500 213.0
73.02500 197.0
73.07500 184.0
73.12500 177.0
73.17500 209.0
73.22500 185.0
73.27500 198.0
73.32500 210.0
73.37500 201.0
73.42500 178.0
73.47500 215.0
73.52500 178.0
73.57500 232.0
73.62500 216.0
73.67500 210.0
73.72500 210.0
73.77500 183.0
73.82500 230.0
73.87500 191.0
73.92500 213.0
73.97500 223.0
74.02500 202.0
74.07500 218.0
74.12500 189.0
74.17500 221.0
74.22500 210.0
74.27500 218.0
74.32500 192.0
74.37500 213.0
74.42500 198.0
74.47500 206.0
74.52500 226.0
74.57500 210.0
74.62500 214.0
74.67500 221.0
74.72500 203.0
74.77500 237.0
74.82500 207.0
74.87500 205.0
74.92500 238.0
74.97500 200.0
75.02500 236.0
75.07500 240.0
75.12500 218.0
75.17500 229.0
75.22500 239.0
75.27500 211.0
75.32500 225.0
75.37500 211.0
75.42500 245.0
75.47500 212.0
75.52500 251.0
75.57500 235.0
75.62500 230.0
75.67500 250.0
75.72500 223.0
75.77500 246.0
75.82500 257.0
75.87500 270.0
75.92500 271.0
75.97500 265.0
76.02500 254.0
76.07500 308.0
76.12500 273.0
76.17500 270.0
76.22500 288.0
76.27500 300.0
76.32500 270.0
76.37500 316.0
76.42500 315.0
76.47500 308.0
76.52500 350.0
76.57500 323.0
76.62500 348.0
76.67500 388.0
76.72500 360.0
76.77500 421.0
76.82500 431.0
76.87500 446.0
76.92500 482.0
76.97500 440.0
77.02500 532.0
77.07500 515.0
77.12500 613.0
77.17500 624.0
77.22500 607.0
77.27500 673.0
77.32500 738.0
77.37500 776.0
77.42500 825.0
77.47500 818.0
77.52500 895.0
77.57500 928.0
77.62500 907.0
77.67500 902.0
77.72500 842.0
77.77500 889.0
77.82500 854.0
77.87500 805.0
77.92500 841.0
77.97500 809.0
78.02500 701.0
78.07500 697.0
78.12500 647.0
78.17500 656.0
78.22500 558.0
78.27500 569.0
78.32500 574.0
78.37500 513.0
78.42500 448.0
78.47500 471.0
78.52500 445.0
78.57500 434.0
78.62500 365.0
78.67500 399.0
78.72500 425.0
78.77500 366.0
78.82500 387.0
78.87500 390.0
78.92500 344.0
78.97500 357.0
79.02500 347.0
79.07500 361.0
79.12500 291.0
79.17500 349.0
79.22500 306.0
79.27500 385.0
79.32500 301.0
79.37500 318.0
79.42500 278.0
79.47500 328.0
79.52500 267.0
79.57500 308.0
79.62500 320.0
79.67500 345.0
79.72500 301.0
79.77500 315.0
79.82500 290.0
79.87500 323.0
79.92500 301.0
79.97500 276.0
80.02500 319.0
80.07500 310.0
80.12500 316.0
80.17500 266.0
80.22500 327.0
80.27500 292.0
80.32500 280.0
80.37500 301.0
80.42500 316.0
80.47500 280.0
80.52500 338.0
80.57500 315.0
80.62500 343.0
80.67500 309.0
80.72500 306.0
80.77500 296.0
80.82500 350.0
80.87500 328.0
80.92500 368.0
80.97500 366.0
81.02500 334.0
81.07500 346.0
81.12500 353.0
81.17500 367.0
81.22500 349.0
81.27500 359.0
81.32500 415.0
81.37500 380.0
81.42500 408.0
81.47500 418.0
81.52500 424.0
81.57500 451.0
81.62500 435.0
81.67500 459.0
81.72500 427.0
81.77500 447.0
81.82500 478.0
81.87500 473.0
81.92500 462.0
81.97500 447.0
82.02500 455.0
82.07500 437.0
82.12500 366.0
82.17500 413.0
82.22500 409.0
82.27500 395.0
82.32500 391.0
82.37500 356.0
82.42500 384.0
82.47500 356.0
82.52500 351.0
82.57500 319.0
82.62500 316.0
82.67500 325.0
82.72500 368.0
82.77500 340.0
82.82500 322.0
82.87500 328.0
82.92500 319.0
82.97500 291.0
83.02500 297.0
83.07500 286.0
83.12500 297.0
83.17500 290.0
83.22500 300.0
83.27500 303.0
83.32500 319.0
83.37500 282.0
83.42500 254.0
83.47500 311.0
83.52500 304.0
83.57500 284.0
83.62500 281.0
83.67500 329.0
83.72500 310.0
83.77500 293.0
83.82500 278.0
83.87500 279.0
83.92500 267.0
83.97500 273.0
84.02500 302.0
84.07500 280.0
84.12500 305.0
84.17500 304.0
84.22500 264.0
84.27500 287.0
84.32500 304.0
84.37500 279.0
84.42500 261.0
84.47500 292.0
84.52500 283.0
84.57500 263.0
84.62500 285.0
84.67500 284.0
84.72500 306.0
84.77500 289.0
84.82500 276.0
84.87500 291.0
84.92500 296.0
84.97500 299.0
85.02500 276.0
85.07500 305.0
85.12500 295.0
85.17500 287.0
85.22500 278.0
85.27500 303.0
85.32500 270.0
85.37500 311.0
85.42500 297.0
85.47500 267.0
85.52500 288.0
85.57500 275.0
85.62500 265.0
85.67500 289.0
85.72500 296.0
85.77500 294.0
85.82500 263.0
85.87500 321.0
85.92500 311.0
85.97500 282.0
86.02500 276.0
86.07500 319.0
86.12500 288.0
86.17500 293.0
86.22500 317.0
86.27500 301.0
86.32500 298.0
86.37500 273.0
86.42500 270.0
86.47500 272.0
86.52500 271.0
86.57500 280.0
86.62500 288.0
86.67500 299.0
86.72500 307.0
86.77500 286.0
86.82500 299.0
86.87500 264.0
86.92500 281.0
86.97500 271.0
87.02500 267.0
87.07500 279.0
87.12500 265.0
87.17500 256.0
87.22500 306.0
87.27500 270.0
87.32500 267.0
87.37500 287.0
87.42500 290.0
87.47500 288.0
87.52500 299.0
87.57500 260.0
87.62500 331.0
87.67500 270.0
87.72500 294.0
87.77500 295.0
87.82500 290.0
87.87500 283.0
87.92500 253.0
87.97500 277.0
88.02500 264.0
88.07500 276.0
88.12500 285.0
88.17500 272.0
88.22500 298.0
88.27500 276.0
88.32500 284.0
88.37500 289.0
88.42500 279.0
88.47500 270.0
88.52500 270.0
88.57500 280.0
88.62500 285.0
88.67500 286.0
88.72500 297.0
88.77500 308.0
88.82500 285.0
88.87500 288.0
88.92500 273.0
88.97500 266.0
89.02500 292.0
89.07500 307.0
89.12500 262.0
89.17500 274.0
89.22500 281.0
89.27500 257.0
89.32500 276.0
89.37500 291.0
89.42500 319.0
89.47500 256.0
89.52500 288.0
89.57500 252.0
89.62500 297.0
89.67500 310.0
89.72500 269.0
89.77500 277.0
89.82500 273.0
89.87500 266.0
89.92500 292.0
89.97500 278.0
