TITLE	HAuCl4-gruppo6
DATA TYPE	ULTRAVIOLET SPECTRUM
ORIGIN	JASCO
OWNER	
DATE	21/05/06
TIME	15:47:47
SPECTROMETER/DATA SYSTEM	
RESOLUTION	
DELTAX	-1
XUNITS	NANOMETERS
YUNITS	ABSORBANCE
FIRSTX	  850.0000
LASTX	  400.0000
NPOINTS	     451
FIRSTY	     0.00311
MAXY	     0.52806
MINY	     0.00305
XYDATA
lam(nm)		abs
850.0000	0.003113
849.0000	0.00311847
848.0000	0.00315951
847.0000	0.00320202
846.0000	0.00323014
845.0000	0.0032459
844.0000	0.00325914
843.0000	0.00326618
842.0000	0.00320124
841.0000	0.00321025
840.0000	0.00329027
839.0000	0.00329647
838.0000	0.00330023
837.0000	0.00328898
836.0000	0.00325943
835.0000	0.00317828
834.0000	0.00326775
833.0000	0.00323385
832.0000	0.00328167
831.0000	0.00321796
830.0000	0.00315935
829.0000	0.00320703
828.0000	0.00325198
827.0000	0.00320452
826.0000	0.00316298
825.0000	0.00321263
824.0000	0.00308171
823.0000	0.00308509
822.0000	0.00308414
821.0000	0.00304763
820.0000	0.00305697
819.0000	0.00307444
818.0000	0.00306773
817.0000	0.0030835
816.0000	0.0030684
815.0000	0.00313122
814.0000	0.00315136
813.0000	0.00312676
812.0000	0.00309224
811.0000	0.00316888
810.0000	0.00321278
809.0000	0.0031652
808.0000	0.00322547
807.0000	0.00322814
806.0000	0.00324684
805.0000	0.00324239
804.0000	0.00326481
803.0000	0.00327225
802.0000	0.00329256
801.0000	0.00330017
800.0000	0.00333607
799.0000	0.00328502
798.0000	0.00333707
797.0000	0.00335859
796.0000	0.0033611
795.0000	0.00332206
794.0000	0.00329785
793.0000	0.00333482
792.0000	0.00334405
791.0000	0.00334224
790.0000	0.00333725
789.0000	0.00342511
788.0000	0.0033699
787.0000	0.00334077
786.0000	0.0032861
785.0000	0.00326069
784.0000	0.00319976
783.0000	0.00322928
782.0000	0.00320264
781.0000	0.00321779
780.0000	0.00327207
779.0000	0.00330043
778.0000	0.00327837
777.0000	0.00329077
776.0000	0.00325643
775.0000	0.0032773
774.0000	0.00332729
773.0000	0.00324509
772.0000	0.00329446
771.0000	0.00335714
770.0000	0.00336824
769.0000	0.00336243
768.0000	0.00338913
767.0000	0.00334339
766.0000	0.00331281
765.0000	0.0033342
764.0000	0.00332932
763.0000	0.00331272
762.0000	0.00331917
761.0000	0.00329394
760.0000	0.00334005
759.0000	0.0033153
758.0000	0.00328151
757.0000	0.00329456
756.0000	0.003271
755.0000	0.00324912
754.0000	0.00326246
753.0000	0.00329252
752.0000	0.00329391
751.0000	0.00333877
750.0000	0.0033729
749.0000	0.00334629
748.0000	0.0033412
747.0000	0.0033399
746.0000	0.00338853
745.0000	0.00338101
744.0000	0.003371
743.0000	0.00336227
742.0000	0.00338532
741.0000	0.00338651
740.0000	0.00338743
739.0000	0.00341937
738.0000	0.00341546
737.0000	0.00339566
736.0000	0.00341265
735.0000	0.00342023
734.0000	0.00339906
733.0000	0.00340662
732.0000	0.00339471
731.0000	0.00342163
730.0000	0.00339411
729.0000	0.00341169
728.0000	0.00342502
727.0000	0.00341631
726.0000	0.00344448
725.0000	0.00342423
724.0000	0.00346178
723.0000	0.00345615
722.0000	0.00341255
721.0000	0.00343572
720.0000	0.00345976
719.0000	0.00345319
718.0000	0.00344324
717.0000	0.00340851
716.0000	0.00339803
715.0000	0.00338251
714.0000	0.00340196
713.0000	0.0034184
712.0000	0.0034306
711.0000	0.00343826
710.0000	0.00341899
709.0000	0.00343185
708.0000	0.00341667
707.0000	0.00342328
706.0000	0.00349197
705.0000	0.00347339
704.0000	0.00344762
703.0000	0.00345333
702.0000	0.00349353
701.0000	0.00353065
700.0000	0.00354032
699.0000	0.00354704
698.0000	0.00355964
697.0000	0.00354954
696.0000	0.00355592
695.0000	0.0035706
694.0000	0.00356861
693.0000	0.00358441
692.0000	0.00357692
691.0000	0.00358479
690.0000	0.00357345
689.0000	0.00359663
688.0000	0.0036337
687.0000	0.00367807
686.0000	0.00367495
685.0000	0.0036836
684.0000	0.00369436
683.0000	0.00368616
682.0000	0.00368176
681.0000	0.0037048
680.0000	0.00373153
679.0000	0.00373482
678.0000	0.00375152
677.0000	0.0037438
676.0000	0.00377902
675.0000	0.00377643
674.0000	0.00376071
673.0000	0.00378812
672.0000	0.0037587
671.0000	0.0037595
670.0000	0.0037852
669.0000	0.00377986
668.0000	0.00377711
667.0000	0.00380696
666.0000	0.00381741
665.0000	0.00382626
664.0000	0.00380049
663.0000	0.0038178
662.0000	0.00381809
661.0000	0.00383684
660.0000	0.00380593
659.0000	0.00382272
658.0000	0.00384143
657.0000	0.00383079
656.0000	0.00383541
655.0000	0.00382818
654.0000	0.00382967
653.0000	0.00382512
652.0000	0.00382789
651.0000	0.00382682
650.0000	0.00383432
649.0000	0.0038509
648.0000	0.0038801
647.0000	0.00386749
646.0000	0.00388957
645.0000	0.00389398
644.0000	0.00391707
643.0000	0.00391053
642.0000	0.00391789
641.0000	0.00392473
640.0000	0.00394488
639.0000	0.00394455
638.0000	0.00394952
637.0000	0.00398006
636.0000	0.00399524
635.0000	0.00401699
634.0000	0.00402477
633.0000	0.00400883
632.0000	0.00398996
631.0000	0.00399693
630.0000	0.0040093
629.0000	0.00402438
628.0000	0.00402109
627.0000	0.0040484
626.0000	0.00406559
625.0000	0.00406819
624.0000	0.00408254
623.0000	0.00407507
622.0000	0.00409961
621.0000	0.00411128
620.0000	0.00412799
619.0000	0.00411777
618.0000	0.00412863
617.0000	0.00413897
616.0000	0.00416682
615.0000	0.00417236
614.0000	0.00416746
613.0000	0.00416485
612.0000	0.00417631
611.0000	0.00417529
610.0000	0.00418445
609.0000	0.00418263
608.0000	0.00417522
607.0000	0.00421636
606.0000	0.0041954
605.0000	0.00418381
604.0000	0.00419282
603.0000	0.00422256
602.0000	0.00421095
601.0000	0.00421363
600.0000	0.00429561
599.0000	0.00429485
598.0000	0.00430942
597.0000	0.00432676
596.0000	0.00434128
595.0000	0.00435265
594.0000	0.00436616
593.0000	0.00437892
592.0000	0.00438287
591.0000	0.0043877
590.0000	0.00440169
589.0000	0.00441286
588.0000	0.00440451
587.0000	0.00440612
586.0000	0.00439174
585.0000	0.00439095
584.0000	0.00439746
583.0000	0.00440906
582.0000	0.0044293
581.0000	0.00443263
580.0000	0.0044256
579.0000	0.00445379
578.0000	0.00443948
577.0000	0.0044338
576.0000	0.00442157
575.0000	0.00443982
574.0000	0.00443093
573.0000	0.004432
572.0000	0.00446158
571.0000	0.00448007
570.0000	0.00450106
569.0000	0.00450167
568.0000	0.00452725
567.0000	0.00456078
566.0000	0.00456937
565.0000	0.0045715
564.0000	0.00459998
563.0000	0.00461006
562.0000	0.00463646
561.0000	0.00465126
560.0000	0.00468352
559.0000	0.00469705
558.0000	0.00473374
557.0000	0.00474579
556.0000	0.00474368
555.0000	0.00477577
554.0000	0.00480797
553.0000	0.00482084
552.0000	0.00483356
551.0000	0.00484658
550.0000	0.00485857
549.0000	0.00487745
548.0000	0.00488754
547.0000	0.00488108
546.0000	0.00491822
545.0000	0.00495943
544.0000	0.00497204
543.0000	0.00500175
542.0000	0.00501429
541.0000	0.00505609
540.0000	0.00508571
539.0000	0.00512015
538.0000	0.00514454
537.0000	0.00521315
536.0000	0.00527587
535.0000	0.00532175
534.0000	0.00539029
533.0000	0.00546425
532.0000	0.00552937
531.0000	0.0056126
530.0000	0.00567308
529.0000	0.00575078
528.0000	0.00586464
527.0000	0.00597363
526.0000	0.00612357
525.0000	0.00625212
524.0000	0.00641103
523.0000	0.00654337
522.0000	0.00669913
521.0000	0.00683775
520.0000	0.00696534
519.0000	0.00718131
518.0000	0.00739678
517.0000	0.007638
516.0000	0.00791916
515.0000	0.00821313
514.0000	0.00849513
513.0000	0.00879164
512.0000	0.00913199
511.0000	0.00951853
510.0000	0.00990836
509.0000	0.0103144
508.0000	0.0107848
507.0000	0.0112637
506.0000	0.011762
505.0000	0.0123351
504.0000	0.0129099
503.0000	0.0135032
502.0000	0.0141763
501.0000	0.014885
500.0000	0.0156292
499.0000	0.0164204
498.0000	0.017239
497.0000	0.0181118
496.0000	0.0190374
495.0000	0.0200001
494.0000	0.0209975
493.0000	0.0220485
492.0000	0.0231237
491.0000	0.024264
490.0000	0.0254731
489.0000	0.0266719
488.0000	0.0279352
487.0000	0.0292564
486.0000	0.0306167
485.0000	0.0319846
484.0000	0.0334075
483.0000	0.0348721
482.0000	0.0364112
481.0000	0.038007
480.0000	0.0396256
479.0000	0.0412379
478.0000	0.0429696
477.0000	0.0446989
476.0000	0.0464629
475.0000	0.0482741
474.0000	0.0501117
473.0000	0.05201
472.0000	0.0539332
471.0000	0.0559009
470.0000	0.0578615
469.0000	0.059899
468.0000	0.0619593
467.0000	0.0640921
466.0000	0.0662462
465.0000	0.0684143
464.0000	0.0706507
463.0000	0.0729717
462.0000	0.0753075
461.0000	0.0777204
460.0000	0.0802272
459.0000	0.0828247
458.0000	0.0854638
457.0000	0.0881812
456.0000	0.0910195
455.0000	0.0939569
454.0000	0.0970461
453.0000	0.100231
452.0000	0.103544
451.0000	0.106948
450.0000	0.110532
449.0000	0.114286
448.0000	0.118235
447.0000	0.122319
446.0000	0.126594
445.0000	0.131063
444.0000	0.135726
443.0000	0.140547
442.0000	0.145652
441.0000	0.151012
440.0000	0.156591
439.0000	0.162403
438.0000	0.168432
437.0000	0.174716
436.0000	0.181236
435.0000	0.188032
434.0000	0.195044
433.0000	0.202294
432.0000	0.209687
431.0000	0.217362
430.0000	0.225218
429.0000	0.233409
428.0000	0.241899
427.0000	0.250607
426.0000	0.259516
425.0000	0.268523
424.0000	0.277711
423.0000	0.287067
422.0000	0.296684
421.0000	0.306475
420.0000	0.317068
419.0000	0.327141
418.0000	0.337317
417.0000	0.34751
416.0000	0.357689
415.0000	0.367898
414.0000	0.378175
413.0000	0.388685
412.0000	0.399374
411.0000	0.410193
410.0000	0.421051
409.0000	0.431828
408.0000	0.442545
407.0000	0.453268
406.0000	0.46394
405.0000	0.474567
404.0000	0.485201
403.0000	0.495878
402.0000	0.506575
401.0000	0.517289
400.0000	0.528061
